,Time (s),J (nA/cm2),bkg,J-bkg
0,0.3583254000004672,5243.102272727273,5240.554432886674,2.5478398405994085
1,0.8725701999992452,5242.727272727273,5240.31190089037,2.4153718369025228
2,1.3862740999993548,5242.188636363637,5240.069368974637,2.119267389000015
3,1.9011809999992693,5241.9340909090915,5239.826837296422,2.1072536126694104
4,2.40375689999928,5241.497727272727,5239.584306079693,1.9134211930340825
5,2.9050000999995973,5241.161363636364,5239.34177561505,1.8195880213133933
6,3.406356199999209,5240.915909090909,5239.099246253601,1.8166628373073763
7,3.919893799999045,5240.668181818182,5238.8567184039985,1.8114634141838906
8,4.432939799999076,5240.302272727274,5238.614192532337,1.6880801949364468
9,4.93825889999971,5239.929545454545,5238.371669161998,1.5578762925470073
10,5.449400100000275,5239.638636363637,5238.1291488697425,1.5094874938940848
11,5.951883499999894,5239.234090909091,5237.8866322815975,1.3474586274933245
12,6.467126100000314,5239.006818181818,5237.644120071326,1.3626981104916922
13,6.968168600000354,5238.888636363637,5237.401612955301,1.4870234083355172
14,7.48295859999962,5238.361363636364,5237.159111692985,1.2022519433794514
15,7.99636719999944,5237.963636363636,5236.916617090865,1.0470192727716494
16,8.498354400000608,5237.859090909092,5236.6741299934465,1.1849609156452061
17,9.013525099999242,5237.443181818182,5236.431651278344,1.0115305398376222
18,9.531784400000106,5237.127272727273,5236.189181860649,0.9380908666234973
19,10.051757400000497,5236.645454545455,5235.946722687436,0.6987318580195279
20,10.5610130999994,5236.654545454546,5235.704274735448,0.9502707190977162
21,11.075152499999597,5236.372727272727,5235.461839003525,0.9108882692025873
22,11.575958499999615,5235.884090909091,5235.219416520556,0.6646743885357864
23,12.088347200000499,5235.581818181819,5234.9770083442345,0.6048098375840709
24,12.593672099999822,5235.409090909091,5234.734615553276,0.6744753558150478
25,13.095395700000154,5235.111363636364,5234.492239245522,0.619124390842444
26,13.609895300000062,5234.74090909091,5234.249880540142,0.49102855076762353
27,14.12381490000007,5234.534090909091,5234.007540575885,0.5265503332057051
28,14.638221299999714,5234.222727272728,5233.765220507028,0.45750676569969073
29,15.139245799999117,5233.875,5233.522921504498,0.3520784955017007
30,15.644575899999843,5233.765909090909,5233.280644753689,0.4852643372205421
31,16.156355600000097,5233.461363636364,5233.038391451127,0.4229721852370858
32,16.66949559999921,5233.072727272727,5232.796162808688,0.27656446403943846
33,17.170429399999193,5232.906818181818,5232.553960051619,0.35285813019982015
34,17.68627860000015,5232.634090909091,5232.311784413914,0.3223064951771448
35,18.189263399999618,5232.313636363637,5232.069637140727,0.24399922291013354
36,18.698308799999722,5231.995454545455,5231.827519487401,0.16793505805344466
37,19.201243699999395,5231.872727272727,5231.585432716998,0.28729455572920415
38,19.714844100000846,5231.472727272728,5231.343378097889,0.12934917483835306
39,20.23416779999934,5231.265909090909,5231.1013569075285,0.16455218338069244
40,20.73776799999905,5230.852272727273,5230.859370427462,-0.0070977001887513325
41,21.23843669999951,5230.743181818182,5230.617419944436,0.12576187374634173
42,21.739169799999218,5230.3431818181825,5230.375506722982,-0.032324904799679643
43,22.24397820000013,5230.206818181819,5230.133632031606,0.0731861502126776
44,22.74763840000014,5229.920454545455,5229.891797037615,0.02865750783985277
45,23.253345699999045,5229.75,5229.650002910634,0.09999708936629759
46,23.7576083999993,5229.370454545455,5229.4082508211895,-0.037796275734763185
47,24.269836600000417,5229.145454545455,5229.166541942974,-0.021087397518385842
48,24.779892700000346,5228.940909090909,5228.924877331349,0.01603175956006453
49,25.286040299999513,5228.74090909091,5228.683257975663,0.05765111524669919
50,25.796686600000612,5228.568181818182,5228.4416848657675,0.1264969524145272
51,26.30831050000051,5228.352272727273,5228.200158993339,0.1521137339341294
52,26.82167389999995,5228.043181818181,5227.958681354052,0.08450046412963275
53,27.337401000000682,5227.781818181818,5227.717252948393,0.0645652334251281
54,27.852892999999312,5227.561363636364,5227.475874779522,0.08548885684194829
55,28.367487499999697,5227.304545454545,5227.234547852639,0.06999760190683446
56,28.882039500000246,5226.918181818181,5226.993273175647,-0.07509135746568063
57,29.404729699999734,5226.727272727273,5226.7520517586645,-0.024779031391517492
58,29.933423000000403,5226.431818181819,5226.510884376722,-0.0790661949031346
59,30.469065900000714,5226.356818181818,5226.269771727278,0.08704645454054116
60,31.00488039999982,5226.086363636365,5226.028714260257,0.05764937610729248
61,31.5320885000001,5225.8772727272735,5225.7877124283405,0.0895602989330655
62,32.05605169999944,5225.604545454546,5225.546766686031,0.0577787685142539
63,32.57806080000046,5225.397727272728,5225.305877490668,0.09184978206030792
64,33.09111099999973,5225.120454545455,5225.065045301411,0.055409244043403305
65,33.60648530000071,5224.9,5224.8242705803295,0.07572941967009683
66,34.122735200000534,5224.606818181818,5224.583553791243,0.02326439057560492
67,34.63910709999982,5224.452272727272,5224.342895400365,0.10937732690763369
68,35.156668399999035,5224.206818181818,5224.102295874645,0.10452230717237398
69,35.679592700000285,5223.822727272727,5223.861755684493,-0.03902841176568472
70,36.2014094999995,5223.972727272728,5223.621275303623,0.35145196910434606
71,36.71454749999975,5223.479545454546,5223.380855083567,0.09869037097814726
72,37.235769799999616,5223.220454545454,5223.14049538697,0.07995915848459845
73,37.75914840000041,5223.09090909091,5222.900196579595,0.19071251131481404
74,38.2833114999994,5223.0590909090915,5222.659959029736,0.39913187935599126
75,38.82648110000082,5222.656818181819,5222.419783111715,0.23703507010395697
76,39.35309749999942,5222.338636363636,5222.17966921248,0.15896715115650295
77,39.877080000000205,5222.415909090909,5221.939617726467,0.47629136444174947
78,40.39927220000027,5221.975,5221.699629053144,0.2753709468561283
79,40.934122700000444,5221.781818181818,5221.459703607035,0.32211457478297234
80,41.46033759999955,5221.629545454546,5221.219841811378,0.409703643168541
81,41.99776220000058,5221.5,5220.98004409959,0.519955900410423
82,42.52670349999971,5221.306818181818,5220.740310918046,0.5665072637721096
83,43.06777739999961,5220.8090909090915,5220.500642729564,0.3084481795276588
84,43.610608499999216,5220.65,5220.261040014875,0.38895998512452934
85,44.14949770000021,5220.488636363636,5220.0215032644655,0.4671330991704963
86,44.682884699999704,5220.238636363637,5219.782032981123,0.4566033825140039
87,45.230147000000215,5219.99090909091,5219.542629682406,0.44827940850336745
88,45.77227089999906,5219.729545454546,5219.303293900312,0.42625155423320393
89,46.30903430000035,5219.597727272728,5219.064026181016,0.5337010917119187
90,46.84740469999997,5219.431818181819,5218.824827084169,0.6069910976502797
91,47.387288899999476,5219.1,5218.5856971863,0.5143028136999419
92,47.96375909999915,5218.820454545455,5218.346637083135,0.47381746231985744
93,48.524142700000084,5218.684090909091,5218.10764738666,0.5764435224309636
94,49.07921969999916,5218.481818181818,5217.8687287238445,0.6130894579737287
95,49.627445300000545,5218.145454545455,5217.629881739889,0.5155728055660802
96,50.171947400000136,5218.177272727274,5217.391107099379,0.7861656278946612
97,50.745543299999554,5217.806818181818,5217.152405483202,0.6544126986163974
98,51.28798579999966,5217.693181818182,5216.913777597104,0.779404221078039
99,51.85912169999938,5217.368181818182,5216.675224167531,0.6929576506508965
100,52.40009590000045,5217.131818181819,5216.43674594557,0.6950722362489614
101,52.951557300000786,5216.884090909091,5216.1983437042245,0.6857472048668569
102,53.48706019999918,5216.961363636364,5215.960018238477,1.0013453978872349
103,54.02393139999913,5216.556818181818,5215.721770364996,0.8350478168222253
104,54.58069660000001,5216.409090909091,5215.483600932115,0.9254899769757685
105,55.139816599999904,5216.045454545455,5215.245510814576,0.799943730879022
106,55.699735500000315,5215.756818181819,5215.007500916386,0.749317265433092
107,56.261967799999184,5215.563636363637,5214.769572166851,0.7940641967861666
108,56.81083699999908,5215.461363636364,5214.531725518972,0.9296381173917325
109,57.35516540000026,5215.252272727273,5214.293961950859,0.9583107764137822
110,57.89567960000022,5214.925000000001,5214.056282470022,0.8687175299792216
111,58.44419150000067,5214.668181818182,5213.818688114277,0.8494937039049546
112,58.99117660000047,5214.747727272728,5213.581179948911,1.1665473238172126
113,59.5301787999997,5214.554545454545,5213.343759066073,1.2107863884721155
114,60.08225540000058,5214.168181818181,5213.106426594793,1.0617552233879906
115,60.64193890000024,5214.093181818182,5212.869183702397,1.223998115784525
116,61.20560099999966,5214.693181818182,5212.632031589779,2.0611502284027665
117,61.77115369999956,5214.788636363636,5212.394971496547,2.3936648670887735
118,62.33114270000078,5213.379545454545,5212.15800472749,1.2215407270550713
119,62.88561599999956,5213.079545454546,5211.921132663092,1.158412791453884
120,63.453724999999395,5213.043181818181,5211.684356722467,1.3588250957145647
121,64.00135579999916,5251.525000000001,5211.447678361361,40.07732163863966
122,64.57523869999932,5232.775,5211.211099078495,21.563900921504683
123,65.13044810000063,5229.877272727273,5210.974621639946,18.902651087326376
124,65.68971529999908,5229.1045454545465,5210.738249493702,18.36629596084458
125,66.25384479999956,5228.336363636365,5210.501986685503,17.83437695086195
126,66.82118339999944,5227.645454545455,5210.265837841886,17.3796167035689
127,67.38306080000076,5227.056818181818,5210.029808153359,17.02701002845879
128,67.9629848000004,5226.461363636365,5209.7939033600205,16.667460276344173
129,68.53430970000043,5225.829545454546,5209.55812974041,16.27141571413631
130,69.09900860000016,5225.561363636364,5209.322494100136,16.238869536227867
131,69.6659722000004,5225.113636363636,5209.087003759358,16.026632604278348
132,70.25961839999944,5224.781818181818,5208.851666551751,15.930151630067485
133,70.82412309999928,5224.236363636363,5208.616490817798,15.619872818565455
134,71.4262230000004,5223.64090909091,5208.381485401738,15.259423689171854
135,72.00248060000013,5223.26590909091,5208.146659641753,15.119249449156996
136,72.57051920000048,5223.063636363637,5207.912023358569,15.151613005067702
137,73.1339282000008,5222.679545454545,5207.677586851025,15.001958603520507
138,73.7196585999991,5222.177272727273,5207.443360897098,14.733911830175202
139,74.29279569999926,5221.690909090909,5207.209356749166,14.481552341743736
140,74.86408710000067,5222.102272727273,5206.975586125535,15.126686601737674
141,75.4614533999993,5221.1272727272735,5206.742061202458,14.385211524815531
142,76.03584149999917,5221.006818181819,5206.508794634531,14.49802354728763
143,76.6249188999991,5220.713636363637,5206.275799531257,14.437836832380526
144,77.22023839999927,5220.375000000001,5206.0430894606,14.331910539401179
145,77.80312129999948,5220.061363636364,5205.810678447095,14.250685189269461
146,78.38701760000004,5219.4681818181825,5205.57858096849,13.889600849692215
147,78.97067160000006,5219.29090909091,5205.346811953181,13.944097137728932
148,79.5552048999998,5219.0931818181825,5205.115386768789,13.977795049393535
149,80.13663610000005,5218.711363636364,5204.884321223891,13.82704241247302
150,80.73916099999953,5218.488636363636,5204.653631569076,13.835004794559609
151,81.33576229999926,5218.227272727273,5204.423334492189,13.803938235084388
152,81.91883469999992,5217.900000000001,5204.193447118572,13.706552881428252
153,82.51821799999924,5217.634090909091,5203.96398701009,13.670103899001333
154,83.10366670000076,5217.504545454545,5203.734972162046,13.769573292499445
155,83.6936114,5217.343181818182,5203.506421002028,13.8367608161534
156,84.2809326000006,5216.990909090909,5203.27835239306,13.712556697848413
157,84.86471879999954,5216.863636363637,5203.050785635721,13.812850727916157
158,85.45916240000042,5216.413636363637,5202.823740464218,13.589895899419389
159,86.05741090000085,5216.322727272727,5202.597237049559,13.72549022316798
160,86.67262739999931,5215.784090909091,5202.371295992503,13.4127949165877
161,87.26915700000065,5215.511363636364,5202.145938327843,13.365425308520571
162,87.8644261999998,5215.4681818181825,5201.921185514521,13.546996303661217
163,88.45752709999942,5215.318181818183,5201.697059434132,13.621122384050977
164,89.05539379999937,5214.804545454546,5201.473582396663,13.33096305788331
165,89.65337,5214.552272727273,5201.250777142841,13.301495584431905
166,90.2409630000002,5214.2181818181825,5201.0286668349545,13.189514983228037
167,91.01015689999986,5213.96590909091,5200.807275055924,13.15863403498588
168,91.60812000000078,5213.7522727272735,5200.586625805757,13.165646921516782
169,92.20929790000082,5213.581818181819,5200.366743500575,13.215074681244005
170,92.81142770000042,5213.41590909091,5200.147652972834,13.268256118075442
171,93.41338299999916,5213.1272727272735,5199.929379472889,13.197893254384326
172,94.03958459999922,5193.225,5199.711948670674,-6.486948670673883
173,94.66692010000044,5196.590909090909,5199.49538665348,-2.904477562570719
174,95.27638830000068,5197.770454545455,5199.279699200197,-1.509244654741451
175,95.8872425999998,5197.936363636363,5199.0648829967995,-1.1285193604362576
176,96.49624389999916,5198.231818181818,5198.850930004338,-0.6191118225196988
177,97.14711390000048,5198.277272727273,5198.637828650855,-0.3605559235820692
178,97.77522270000009,5198.302272727273,5198.425565426172,-0.12329269889960415
179,98.39041960000031,5198.279545454546,5198.21412569133,0.06541976321568654
180,99.00681070000064,5198.384090909091,5198.003494421382,0.3805964877092265
181,99.62412120000045,5198.295454545455,5197.7936565934515,0.5017979520034714
182,100.24442579999959,5198.215909090909,5197.5845971966955,0.6313118942134679
183,100.8726528999996,5198.336363636364,5197.3763012361405,0.9600624002232507
184,101.49609659999987,5198.143181818182,5197.168753736776,0.9744280814056765
185,102.11444449999908,5198.065909090909,5196.961939753951,1.103969336958471
186,102.7339219000005,5198.006818181818,5196.755844373829,1.2509738079888848
187,103.37342800000081,5198.025000000001,5196.550452717483,1.4745472825179604
188,104.00518139999986,5197.977272727272,5196.345749945545,1.6315227817267441
189,104.63445750000028,5197.706818181819,5196.141721265279,1.5650969165399147
190,105.26645540000027,5197.581818181819,5195.938351935538,1.6434662462806955
191,105.90816369999993,5197.272727272728,5195.735627264668,1.5371000080594968
192,106.5356140999993,5197.3431818181825,5195.533532612989,1.8096492051936366
193,107.15895389999969,5197.134090909091,5195.332053389423,1.8020375196683744
194,107.7868942999994,5197.129545454545,5195.131175060123,1.9983703944226363
195,108.41274750000048,5196.793181818181,5194.930883148221,1.8622986699601825
196,109.05770520000078,5196.893181818182,5194.731163240048,2.1620185781339387
197,109.70213200000035,5196.777272727273,5194.532000980822,2.2452717464511807
198,110.32868690000032,5196.609090909091,5194.33338208413,2.2757088249609296
199,110.97717960000043,5196.41590909091,5194.135292334562,2.2806167563476265
200,111.61860940000042,5196.327272727273,5193.937717588673,2.3895551386003717
201,112.25468799999908,5196.256818181819,5193.740643775134,2.516174406684513
202,112.88922199999979,5195.963636363636,5193.544056898185,2.419579465451534
203,113.53051720000076,5195.829545454546,5193.34794304163,2.4816024129158905
204,114.18205830000079,5195.768181818182,5193.15228836579,2.6158934523919015
205,114.8244283999993,5195.570454545455,5192.957079109459,2.6133754359952945
206,115.47691560000021,5195.4340909090915,5192.762301594157,2.671789314934358
207,116.13080199999968,5195.325,5192.567942224041,2.757057775958856
208,116.7698130000008,5195.170454545455,5192.373987487761,2.796467057693917
209,117.41196099999979,5194.906818181818,5192.180423961148,2.726394220670045
210,118.05437060000077,5194.9454545454555,5191.987238308468,2.958216236987937
211,118.70208169999933,5194.770454545455,5191.794417280198,2.9760372652572187
212,119.35204289999999,5194.459090909091,5191.601947720365,2.857143188725786
213,120.04423409999981,5194.511363636364,5191.409816567106,3.101547069258231
214,120.68590629999926,5195.663636363636,5191.2180108489065,4.445625514729727
215,121.3291795999994,5194.179545454545,5191.026517692333,3.153027762212332
216,121.97411920000013,5194.322727272728,5190.835324364534,3.4874029081938716
217,122.63914160000058,5193.918181818182,5190.6444182323685,3.2737635858138674
218,123.29468090000046,5210.656818181818,5190.453786772975,20.203031408843344
219,123.97560720000001,5228.375000000001,5190.263417567018,38.111582432982686
220,124.62299109999913,5222.922727272728,5190.07329883404,32.84942843868794
221,125.29920759999914,5220.915909090909,5189.883419998773,31.03248909213562
222,125.95589280000058,5219.722727272728,5189.693771524744,30.028955747983673
223,126.61556820000078,5219.061363636364,5189.504344856809,29.55701877955471
224,127.27262680000058,5218.163636363636,5189.315132389424,28.84850397421178
225,127.93398709999929,5217.243181818182,5189.126127451718,28.11705436646389
226,128.60702599999968,5216.777272727273,5188.937324285091,27.839948442182504
227,129.26056249999965,5216.140909090909,5188.7487180200815,27.39219107082772
228,129.9172665999995,5215.725,5188.560304667604,27.16469533239615
229,130.58036549999997,5215.163636363636,5188.372081104794,26.79155525884198
230,131.27693030000046,5214.515909090909,5188.184045067807,26.331864023101843
231,131.93229749999955,5214.1954545454555,5187.996195140022,26.199259405433622
232,132.5932716999996,5214.088636363636,5187.808530737505,26.280105626131444
233,133.25586099999964,5213.6,5187.621052104816,25.97894789518432
234,133.9195748000002,5212.993181818182,5187.433760317565,25.559421500616736
235,134.58180429999993,5213.177272727273,5187.246657272889,25.93061545438377
236,135.24175339999965,5212.434090909091,5187.059745676181,25.374345232909945
237,135.9134995000004,5212.031818181818,5186.873029052835,25.1587891289837
238,136.57290079999984,5211.981818181818,5186.6865117306525,25.295306451165743
239,137.23433359999945,5211.161363636364,5186.500198833026,24.66116480333767
240,137.91246300000057,5210.997727272728,5186.314096283254,24.683630989474295
241,138.57608699999946,5210.861363636364,5186.128210784491,24.733152851873456
242,139.24775469999986,5210.586363636365,5185.942549820459,24.64381381590556
243,139.9132499999996,5210.484090909092,5185.7571216570095,24.7269692520822
244,140.57702869999957,5210.202272727273,5185.571935339301,24.63033738797276
245,141.2417903000005,5210.036363636364,5185.3870006944235,24.649362941940126
246,141.9140554000005,5209.634090909091,5185.20232832835,24.431762580741633
247,142.58406800000012,5209.01590909091,5185.017929626534,23.99797946437593
248,143.2551956999996,5209.122727272727,5184.833816747032,24.288910525695428
249,143.9246063999999,5208.868181818182,5184.65000260678,24.218179211402457
250,144.6005857,5208.700000000001,5184.466500890797,24.233499109203876
251,145.27471949999926,5208.318181818183,5184.283326049948,24.034855768234593
252,145.94356049999988,5208.081818181819,5184.100493301428,23.981324880390275
253,146.61840739999934,5207.772727272728,5183.918018622481,23.85470865024672
254,147.31433579999975,5207.325,5183.735918748707,23.589081251292555
255,147.9950446999992,5207.375,5183.554211170059,23.820788829941193
256,148.6777648999996,5207.063636363637,5183.37291412244,23.690722241196454
257,149.36752709999928,5207.443181818182,5183.192046595038,24.251135223144047
258,150.06014180000057,5206.902272727273,5183.011628326201,23.890644401071768
259,150.7477046999993,5206.734090909091,5182.831679821169,23.90241108792179
260,151.43458400000057,5206.147727272728,5182.652222340668,23.495504932059703
