,Time (s),J (nA/cm2),bkg,J-bkg
0,0.18903189999992165,1025.7056818181818,1025.4281478026846,0.2775340154971673
1,0.6937545000000682,1025.730681818182,1025.4169138963257,0.31376792185619706
2,1.199493000000075,1025.7018181818182,1025.405679998743,0.2961381830752998
3,1.7028126999998676,1025.6286363636364,1025.394446128635,0.23419023500127878
4,2.2048344999998335,1025.6152272727272,1025.383212314065,0.23201495866214827
5,2.7095048999999563,1025.5870454545454,1025.3719785905012,0.21506686404427455
6,3.211516500000016,1025.575909090909,1025.3607450007485,0.21516409016044236
7,3.716984400000001,1025.6027272727272,1025.3495115944138,0.25321567831338143
8,4.220498399999997,1025.535,1025.3382784279074,0.19672157209265606
9,4.722862499999792,1025.499090909091,1025.3270455656468,0.17204534344409694
10,5.227053199999773,1025.5,1025.3158130782706,0.1841869217294061
11,5.732225499999913,1025.4879545454546,1025.3045810418578,0.18337350359684024
12,6.236809900000026,1025.454090909091,1025.2933495383127,0.16074137077839623
13,6.73983700000008,1025.425681818182,1025.282118655338,0.14356316284397508
14,7.240948399999979,1025.434090909091,1025.2708884857193,0.1632024233717857
15,7.743766499999765,1025.4036363636365,1025.2596591267816,0.14397723685488018
16,8.25870309999982,1025.3752272727274,1025.248430681011,0.1267965917163565
17,8.760794399999668,1025.3081818181818,1025.2372032554474,0.07097856273435355
18,9.264971399999922,1025.3218181818183,1025.2259769611394,0.09584122067894896
19,9.769922699999825,1025.283181818182,1025.2147519113812,0.06842990680070216
20,10.273133099999995,1025.2813636363637,1025.2035282224977,0.07783541386606885
21,10.777742499999931,1025.2970454545455,1025.1923060129777,0.1047394415677445
22,11.28132259999984,1025.244090909091,1025.1810854037715,0.06300550531955196
23,11.794749899999715,1025.2338636363636,1025.1698665191414,0.0639971172222431
24,12.29754679999997,1025.2270454545455,1025.1586494853427,0.0683959692028111
25,12.812678100000085,1025.2020454545454,1025.1474344306546,0.054611023890856814
26,13.313746599999831,1025.1920454545457,1025.136221485519,0.05582396902673281
27,13.81980889999977,1025.1729545454546,1025.1250107821047,0.04794376334984918
28,14.321690599999783,1025.1352272727274,1025.1138024543461,0.02142481838131971
29,14.823506599999746,1025.1211363636364,1025.1025966376935,0.018539725942900986
30,15.3249651000001,1025.125909090909,1025.0913934682744,0.03451562263467167
31,15.829825599999822,1025.1120454545455,1025.080193082803,0.031852371742616015
32,16.345575199999985,1025.099090909091,1025.0689956190847,0.030095290006329378
33,16.850437300000067,1025.0561363636364,1025.0578012159324,-0.001664852296016761
34,17.357332699999915,1025.0729545454546,1025.0466100131102,0.026344532344410254
35,17.862033099999735,1025.0422727272728,1025.0354221451705,0.006850582102288172
36,18.363460399999894,1025.0488636363636,1025.0242377474985,0.024625888865102752
37,18.876420999999937,1025.0193181818183,1025.0130569556964,0.006261226121978325
38,19.37872789999983,1025.0152272727275,1025.0018799061438,0.013347366583730036
39,19.896111999999903,1024.9688636363637,1024.9907067354197,-0.02184309905601367
40,20.40774869999995,1025.004090909091,1024.9795375805247,0.02455332856629866
41,20.908765699999996,1024.9497727272726,1024.9683725100763,-0.018599782803676135
42,21.415425799999866,1024.9379545454544,1024.9572115934682,-0.01925704801374195
43,21.91792009999972,1024.931818181818,1024.9460548418647,-0.014236660046663019
44,22.42165699999987,1024.9304545454545,1024.9349022061433,-0.004447660688811084
45,22.928759399999763,1024.9100000000003,1024.923753592611,-0.013753592610783016
46,23.438848999999664,1024.9256818181818,1024.9126088936516,0.013072924530206365
47,23.944713800000045,1024.9052272727274,1024.90146795859,0.003759314137369074
48,24.44827639999994,1024.8777272727273,1024.890330637165,-0.012603364437836717
49,24.950441299999966,1024.8577272727275,1024.879196779235,-0.021469506507401093
50,25.452224099999967,1024.8588636363636,1024.8680661952008,-0.009202558837159813
51,25.95549660000006,1024.864090909091,1024.8569386282497,0.007152280841182801
52,26.459188599999834,1024.82,1024.845813792759,-0.025813792758981435
53,26.961183099999744,1024.7986363636364,1024.8346914033316,-0.036055039695156665
54,27.461515699999843,1024.7927272727275,1024.8235710937565,-0.03084382102906602
55,27.967531100000087,1024.8068181818182,1024.8124523849472,-0.00563420312892049
56,28.46803729999965,1024.793409090909,1024.8013347012557,-0.007925610346546819
57,28.972924299999704,1024.7836363636366,1024.790217449396,-0.006581085759535199
58,29.47852069999999,1024.7804545454546,1024.7791000112702,0.0013545341844292125
59,29.99721789999967,1024.7386363636365,1024.767981748176,-0.029345384539510633
60,30.534531499999957,1024.7365909090909,1024.7568620214545,-0.02027111236361634
61,31.044615899999826,1024.7497727272728,1024.745740100576,0.004032626696698571
62,31.55652449999979,1024.7538636363638,1024.7346151915494,0.01924844481436594
63,32.0726053999997,1024.7159090909092,1024.7234865005112,-0.007577409601935869
64,32.58336809999992,1024.723181818182,1024.7123532342064,0.010828583975580841
65,33.09643159999996,1024.6740909090909,1024.7012145756582,-0.02712366656737686
66,33.608730399999786,1024.6704545454545,1024.6900697082317,-0.019615162777199657
67,34.12438919999977,1024.6727272727273,1024.6789177303772,-0.0061904576498363895
68,34.63603199999989,1024.676590909091,1024.6677576791365,0.008833229954461785
69,35.144607899999755,1024.6781818181819,1024.656588572171,0.021593246010979783
70,35.66976799999975,1024.6568181818182,1024.6454094274218,0.011408754396370568
71,36.19919350000009,1024.6543181818183,1024.6342192635127,0.020098918305620828
72,36.72167209999998,1024.6154545454544,1024.6230170994286,-0.007562553974139519
73,37.24249009999994,1024.6243181818181,1024.6118019547894,0.012516227028754656
74,37.76071219999994,1024.6327272727272,1024.6005728255395,0.03215444718762228
75,38.28136739999991,1024.6370454545456,1024.589328708019,0.04771674652670299
76,38.816322899999705,1024.5895454545457,1024.5780685995849,0.01147685496084705
77,39.337277300000096,1024.6095454545455,1024.5667914991027,0.042753955442776714
78,39.863394399999834,1024.5936363636365,1024.5554964058015,0.038139957835028326
79,40.390867399999934,1024.614090909091,1024.544182320261,0.06990858883000328
80,40.92114679999986,1024.5627272727274,1024.532848244268,0.02987902845939061
81,41.45662279999988,1024.5747727272728,1024.52149318182,0.053279545452824095
82,41.985995,1024.5690909090908,1024.5101161378584,0.058974771232442436
83,42.513446699999804,1024.5693181818183,1024.49871611901,0.07060206280834791
84,43.05842769999981,1024.543181818182,1024.4872921337662,0.05588968441566067
85,43.584921699999995,1024.5561363636366,1024.4758431928524,0.08029317078421627
86,44.127923999999894,1024.5436363636363,1024.4643683087604,0.07926805487591082
87,44.65764199999967,1024.5452272727273,1024.4528664965217,0.09236077620562355
88,45.20858159999989,1024.5409090909093,1024.441336773674,0.09957231723524274
89,45.76936529999966,1024.5147727272727,1024.4297781606765,0.08499456659615134
90,46.31610569999975,1024.5309090909093,1024.4181896811353,0.11271940977394479
91,46.85478199999989,1024.4695454545454,1024.4065703613458,0.06297509319961136
92,47.39457139999968,1024.5145454545454,1024.3949192311666,0.11962622337887296
93,47.93512409999994,1024.5179545454548,1024.3832353224493,0.13471922300550432
94,48.4746725,1024.4865909090909,1024.3715176708272,0.1150732382636761
95,49.020431200000075,1024.4675000000002,1024.3597653161953,0.10773468380489248
96,49.57719309999993,1024.4697727272728,1024.3479773020863,0.12179542518651942
97,50.14212719999978,1024.453181818182,1024.3361526754409,0.11702914274110299
98,50.69291559999965,1024.4811363636363,1024.3242904870506,0.15684587658574856
99,51.23745699999972,1024.4736363636366,1024.312389791408,0.16124657222871974
100,51.78108619999966,1024.4379545454547,1024.3004496479643,0.13750489749031658
101,52.327443299999686,1024.4618181818182,1024.2884691212707,0.1733490605474799
102,52.86172140000008,1024.4420454545457,1024.2764472802262,0.16559817431948431
103,53.396073200000046,1024.4627272727273,1024.2643831992118,0.19834407351549999
104,53.934941499999695,1024.4370454545456,1024.252275957846,0.1847694966995732
105,54.475158400000055,1024.424090909091,1024.2401246420195,0.18396626707158248
106,55.02970479999976,1024.4479545454546,1024.2279283434661,0.2200262019885031
107,55.56262939999988,1024.4168181818184,1024.2156861597375,0.20113202208085568
108,56.10489430000007,1024.414318181818,1024.2033971953426,0.21092098647545754
109,56.65211629999976,1024.4229545454546,1024.191060561151,0.23189398430349684
110,57.194532799999706,1024.414090909091,1024.1786753747022,0.2354155343889488
111,57.73879739999984,1024.4213636363636,1024.1662407608685,0.25512287549508983
112,58.2841198000001,1024.413409090909,1024.1537558519674,0.25965323894160974
113,58.8424986,1024.3997727272729,1024.1412197883833,0.2585529388895793
114,59.38784540000006,1024.394090909091,1024.128631718712,0.26545919037880594
115,59.934218399999736,1024.3761363636365,1024.1159907997253,0.26014556391123733
116,60.5002510999998,1024.4034090909092,1024.1032961965889,0.3001128943203639
117,61.057583499999964,1024.5722727272728,1024.0905470826951,0.48172564457763656
118,61.63193329999967,1024.8561363636363,1024.077742640927,0.7783937227093247
119,62.17982429999984,1024.4147727272727,1024.0648820694005,0.34989065787226536
120,62.72989759999972,1024.3672727272728,1024.0519645908464,0.31530813642643807
121,63.2911863999998,1024.4550000000002,1024.03898943906,0.41601056094009436
122,63.846598000000085,1039.156590909091,1024.0259558578075,15.130635051283434
123,64.40121799999996,1031.2863636363638,1024.0128631040106,7.273500532353182
124,64.9577823999998,1030.2686363636365,1023.9997109130637,6.268925450572738
125,65.51247149999972,1030.159090909091,1023.9864992503695,6.172591658721444
126,66.0769866999999,1029.9177272727275,1023.9732282795715,5.944498993156003
127,66.63441839999996,1029.7529545454545,1023.9598983595073,5.793056185947194
128,67.19265829999996,1029.693181818182,1023.9465100369964,5.746671781185569
129,67.7669406,1029.5197727272728,1023.9330640420508,5.586708685221993
130,68.33257289999985,1029.3977272727275,1023.9195612864077,5.478165986319823
131,68.89357599999994,1029.3756818181819,1023.9060028584717,5.469678959710222
132,69.45147229999976,1029.2229545454545,1023.8923900198821,5.330564525572413
133,70.0185647999997,1029.1468181818184,1023.8787242052447,5.268093976573709
134,70.59374709999976,1029.1079545454545,1023.8650070177326,5.242947527721867
135,71.16743569999971,1029.0027272727273,1023.8512402271105,5.151487045616818
136,71.74186289999987,1028.9704545454545,1023.8374257689392,5.133028776515289
137,72.3148954999997,1029.07,1023.823565741684,5.246434258315958
138,72.87764579999975,1028.8863636363637,1023.8096624061308,5.07670123023297
139,73.4499178000001,1028.7438636363638,1023.7957181889723,4.948145447391539
140,74.03164369999968,1028.784090909091,1023.7817356774403,5.002355231650654
141,74.60288429999991,1028.6488636363638,1023.7677176152408,4.881146021122959
142,75.17958999999972,1028.6370454545454,1023.7536669042677,4.883378550277712
143,75.75551069999985,1028.5420454545456,1023.7395866007698,4.802458853775761
144,76.3315333999999,1028.5084090909093,1023.7254799154225,4.782929175486743
145,76.90407529999992,1028.4913636363638,1023.7113502107682,4.780013425595598
146,77.4810183999998,1028.480909090909,1023.6972010005986,4.783708090310483
147,78.05613270000003,1028.4970454545455,1023.6830359498626,4.814009504682872
148,78.63155199999984,1028.4713636363638,1023.6688588747834,4.802504761580394
149,79.2074303999998,1028.425,1023.654673743816,4.770326256183921
150,79.78583630000004,1028.3029545454547,1023.6404846772845,4.662469868170206
151,80.36793970000008,1028.3402272727274,1023.626295946363,4.713931326364332
152,80.95041020000008,1028.270909090909,1023.6121119696664,4.658797121242628
153,81.52979409999988,1028.2163636363637,1023.597937314877,4.618426321486709
154,82.11291819999995,1028.1325000000002,1023.5837766970012,4.548723302998951
155,82.69574169999989,1028.168409090909,1023.5696349770926,4.598774113816489
156,83.28900739999972,1028.1961363636365,1023.555517160048,4.6406192035884715
157,83.87683719999995,1028.1918181818182,1023.54142839619,4.650389785628249
158,84.4613374999999,1028.161818181818,1023.5273739825908,4.634444199227232
159,85.05249849999971,1028.0586363636364,1023.5133593633809,4.54527700025551
160,85.64787949999982,1028.1131818181818,1023.4993901292444,4.613791688937454
161,86.24128199999996,1027.9520454545457,1023.4854720145998,4.466573439945819
162,86.83204769999976,1028.0406818181818,1023.4716108997669,4.569070918414923
163,87.42515959999992,1027.9468181818183,1023.4578128063105,4.4890053755078725
164,88.02780269999994,1027.940681818182,1023.4440839002822,4.496597917899749
165,88.62386809999998,1027.950681818182,1023.4304304896885,4.520251328493373
166,89.22391289999996,1027.8243181818182,1023.4168590247311,4.4074591570870325
167,89.82223709999973,1027.9229545454548,1023.4033760985538,4.519578446900937
168,90.4218264000001,1027.919090909091,1023.3899884436765,4.529102465414439
169,91.01175239999976,1027.918409090909,1023.3767029355407,4.541706155368388
170,91.61067139999976,1027.9550000000002,1023.3635265928107,4.591473407189483
171,92.2137662,1028.0077272727274,1023.350466577772,4.657260694955426
172,92.81631119999976,1027.8784090909091,1023.3375301979053,4.540878893003878
173,93.43446189999986,1027.8149999999998,1023.324724907967,4.490275092032789
174,94.03636559999995,1021.3104545454546,1023.3120583063087,-2.0016037608540955
175,94.64283939999996,1022.3959090909091,1023.2995381332767,-0.9036290423675837
176,95.25975749999998,1022.7554545454544,1023.2871658628869,-0.5317113174324959
177,95.88016560000004,1022.9525000000001,1023.2749401402048,-0.3224401402046624
178,96.50466009999992,1023.0784090909092,1023.2628579456912,-0.18444885478197648
179,97.11749059999966,1023.1179545454546,1023.250915250358,-0.13296070490343936
180,97.73329439999998,1023.2229545454545,1023.2391074477715,-0.01615290231700328
181,98.35299600000008,1023.2675,1023.2274295152437,0.040070484756370206
182,98.9685856000001,1023.3209090909093,1023.2158763795172,0.10503271139202752
183,99.5803235999997,1023.3263636363636,1023.2044429686023,0.1219206677612874
184,100.20398470000009,1023.3788636363637,1023.1931242138305,0.18573942253317455
185,100.83783730000005,1023.4297727272726,1023.1819150503893,0.24785767688331362
186,101.45409269999982,1023.4538636363636,1023.1708104193397,0.28305321702396213
187,102.08989079999992,1023.4806818181819,1023.1598052695804,0.32087654860151815
188,102.70359179999969,1023.4568181818182,1023.1488945589616,0.307923622856606
189,103.32658649999985,1023.5052272727273,1023.13807325548,0.3671540172473442
190,103.94709539999985,1023.5552272727274,1023.1273363368698,0.4278909358575902
191,104.5679725,1023.5443181818182,1023.1166787924755,0.4276393893427439
192,105.19457340000008,1023.5900000000001,1023.1060956251727,0.48390437482748894
193,105.82177599999977,1023.5979545454547,1023.09558185136,0.5023726940947881
194,106.45098909999979,1023.5909090909092,1023.0851325027382,0.5057765881709884
195,107.0895829000001,1023.6154545454547,1023.0747426268947,0.540711918559964
196,107.7163043999999,1023.6052272727272,1023.0644072874103,0.5408199853169435
197,108.34376870000006,1023.6225000000002,1023.0541215649645,0.5683784350356973
198,108.97785449999992,1023.6879545454547,1023.0438805573397,0.6440739881149966
199,109.61085809999986,1023.666590909091,1023.0336793802916,0.6329115287994682
200,110.24596889999975,1023.6850000000001,1023.0235131699434,0.6614868300566741
201,110.87752019999971,1023.7172727272729,1023.0133770824325,0.7038956448403724
202,111.50094979999994,1023.6806818181819,1023.0032662948141,0.677415523367813
203,112.15289319999965,1023.745,1022.9931760064025,0.7518239935975544
204,112.78380889999971,1023.7197727272726,1022.9831014379333,0.736671289339256
205,113.41772319999973,1023.7361363636363,1022.9730378339176,0.763098529718718
206,114.05617260000008,1023.7388636363637,1022.9629804621612,0.7758831742024768
207,114.6953524999999,1023.769090909091,1022.9529246146017,0.8161662944893351
208,115.33255559999998,1023.7988636363636,1022.9428656077122,0.8559980286514701
209,115.98861739999984,1023.760681818182,1022.9327987837752,0.8278830344067956
210,116.63083400000005,1023.7568181818183,1022.9227195121422,0.8340986696761092
211,117.27608729999974,1023.8154545454547,1022.9126231883448,0.9028313571099034
212,117.91910579999967,1023.7765909090908,1022.9025052342911,0.8740856747997441
213,118.57345119999991,1023.8025,1022.8923611004393,0.9101388995607067
214,119.23239669999975,1023.8131818181819,1022.8821862648889,0.9309955532929735
215,119.88877759999968,1023.8431818181818,1022.8719762345202,0.9712055836616855
216,120.53877859999966,1023.8202272727275,1022.8617265456539,0.9585007270735559
217,121.18909170000006,1024.2113636363638,1022.8514327653237,1.359930871040092
218,121.83475210000006,1023.8361363636363,1022.8410904908732,0.9950458727631712
219,122.47280139999975,1024.3404545454546,1022.830695362651,1.5097591828035775
220,123.12873579999996,1023.8454545454547,1022.8202430524724,1.0252114929822937
221,123.77704349999976,1023.8397727272728,1022.8097292798949,1.0300434473779205
222,124.42374739999968,1043.2204545454547,1022.7991497968962,20.42130474855844
223,125.06403099999989,1035.0063636363636,1022.7885003880269,12.217863248336698
224,125.70904949999976,1033.9377272727274,1022.7777774836154,11.159949789112034
225,126.37015709999969,1033.5529545454547,1022.7669779003531,10.785976645101528
226,127.01420389999976,1033.055909090909,1022.75609880784,10.29981028306895
227,127.65750469999966,1032.9254545454546,1022.7451377167583,10.180316828696277
228,128.31892579999976,1032.6793181818182,1022.7340924634995,9.945225718318738
229,128.97317889999977,1032.504090909091,1022.7229612063842,9.781129702706835
230,129.61924039999985,1032.3652272727272,1022.7117424182294,9.653484854497833
231,130.27551319999975,1032.2202272727272,1022.7004348811585,9.519792391568785
232,130.91975139999977,1032.0847727272728,1022.6890376825646,9.395735044708204
233,131.58034580000003,1032.1050000000002,1022.6775502108835,9.427449789116736
234,132.24486149999984,1031.8620454545455,1022.6659721516702,9.196073302875334
235,132.89569359999996,1031.7856818181817,1022.6543034886015,9.13137832958023
236,133.54632450000008,1031.6484090909091,1022.6425444961598,9.005864594749369
237,134.2032549999999,1031.5436363636363,1022.6306957375867,8.91294062604959
238,134.85395739999967,1031.4706818181817,1022.6187580609144,8.851923757267286
239,135.50337249999984,1031.4593181818182,1022.6067325960265,8.852585585791644
240,136.15099310000005,1031.3504545454546,1022.5946207527295,8.75583379272507
241,136.7991253,1031.3956818181819,1022.5824242207733,8.813257597408551
242,137.4563506999998,1031.3654545454544,1022.5701449667919,8.795309578662568
243,138.11459909999985,1031.256590909091,1022.557785236118,8.698805672973094
244,138.7711420999999,1031.2436363636364,1022.5453475522166,8.69828881141973
245,139.4323062999997,1031.0084090909093,1022.5328347136328,8.475574377276416
246,140.09205870000005,1031.1031818181818,1022.5202497939752,8.582932024206684
247,140.75928619999968,1030.9977272727274,1022.5075961348734,8.49013113785395
248,141.42407259999982,1030.9702272727272,1022.4948773493736,8.475349923353633
249,142.07935659999976,1030.8229545454546,1022.4820973190033,8.340857226451362
250,142.74553779999997,1030.9554545454546,1022.4692601933043,8.486194352150278
251,143.41124899999977,1030.8606818181818,1022.4563703855797,8.404311432602071
252,144.07294999999976,1030.8886363636366,1022.443432577489,8.445203786147545
253,144.73796249999987,1030.7995454545455,1022.4304517164592,8.369093738086349
