,Time (s),J (nA/cm2),bkg,J-bkg
0,0.4376307000002271,2131.497272727273,2130.9819984537075,0.5152742735654101
1,0.9524250000013126,2131.411818181818,2130.9157452066993,0.49607297511875004
2,1.4676269999999931,2131.3318181818186,2130.849491975986,0.4823262058325781
3,1.9754694000002928,2131.2284090909093,2130.783238793548,0.4451702973610736
4,2.4890993000008166,2131.133181818182,2130.716985706619,0.4161961115628401
5,3.0027696000015567,2131.0829545454544,2130.6507327765094,0.4322217689450554
6,3.515810300001249,2131.0120454545454,2130.5844800776895,0.42756537685590956
7,4.031421000001501,2130.889772727273,2130.5182276983005,0.3715450289723776
8,4.532908400000451,2130.8100000000004,2130.4519757400017,0.35802425999872867
9,5.047813500001212,2130.727954545455,2130.385724316202,0.34223022925289115
10,5.548122300000614,2130.6645454545455,2130.319473551633,0.34507190291242296
11,6.062869400000643,2130.5602272727274,2130.2532235818485,0.30700369087890067
12,6.566872700001113,2130.4868181818183,2130.1869745533145,0.2998436285038224
13,7.081315200000972,2130.398181818182,2130.120726622205,0.2774551959769269
14,7.585971400001654,2130.305909090909,2130.0544799541763,0.25142913673289513
15,8.088317300000199,2130.199772727273,2129.9882347236576,0.2115380036152601
16,8.6029767,2130.1484090909094,2129.921991113029,0.22641797788037366
17,9.106085300001723,2130.076136363636,2129.855749311361,0.22038705227532773
18,9.644578900000852,2129.975909090909,2129.7895095148833,0.18639957602590584
19,10.150076300000372,2129.9113636363636,2129.7232719267968,0.18809170956683374
20,10.664846900001066,2129.8284090909096,2129.6570367561962,0.1713723347133964
21,11.16630510000141,2129.7227272727273,2129.5908042181245,0.13192305460279385
22,11.680933600000571,2129.631590909091,2129.5245745330444,0.1070163760464311
23,12.181120700000974,2129.588863636364,2129.45834792559,0.13051571077403423
24,12.683660400000008,2129.490681818182,2129.3921246237796,0.09855719440247412
25,13.19750710000153,2129.3943181818186,2129.3259048597606,0.0684133220579497
26,13.713136700000177,2129.365227272727,2129.2596888687963,0.10553840393095015
27,14.228542800001378,2129.2629545454547,2129.1934768883134,0.06947765714130583
28,14.729859200000647,2129.203863636364,2129.127269159076,0.07659447728792657
29,15.243027000000438,2129.105681818182,2129.061065924045,0.044615894136768475
30,15.744742200000474,2129.0299999999997,2128.9948674286034,0.03513257139638881
31,16.257630200001586,2128.948409090909,2128.928673919545,0.019735171364118287
32,16.75883850000173,2128.8681818181817,2128.862485644775,0.0056961734067044745
33,17.262233900000865,2128.8365909090912,2128.7963028528225,0.040288056268764194
34,17.77455800000098,2128.744090909091,2128.730125792396,0.013965116695089819
35,18.276838100000532,2128.662727272728,2128.6639547134787,-0.0012274407508812146
36,18.779574800000773,2128.616590909091,2128.597789866495,0.018801042595896433
37,19.285680000000866,2128.5206818181823,2128.5316314980273,-0.010949679844998172
38,19.791903500001354,2128.405,2128.465479855252,-0.060479855251742265
39,20.306388200000583,2128.3570454545456,2128.3993351510653,-0.04228969651967418
40,20.821318900001643,2128.295681818182,2128.333197409023,-0.037515590840939694
41,21.322612500000105,2128.219772727273,2128.267066520285,-0.04729379301215886
42,21.857534900000246,2128.1529545454546,2128.2009422585634,-0.047987713108796015
43,22.36808100000053,2128.1511363636364,2128.134824249511,0.016312114125412336
44,22.883544000000256,2128.043409090909,2128.0687119685467,-0.025302877637841448
45,23.395281400000385,2127.988863636364,2128.0026048916056,-0.01374125524171177
46,23.913043400001698,2127.928409090909,2127.9365024154076,-0.008093324498531729
47,24.438640100001066,2127.827272727273,2127.870403893654,-0.04313116638104475
48,24.958130599999997,2127.743409090909,2127.804308654708,-0.06089956379901196
49,25.46626080000169,2127.690909090909,2127.7382158919063,-0.04730680099737583
50,25.976359700000103,2127.6381818181817,2127.6721246079283,-0.033942789746561175
51,26.498830100001214,2127.6000000000004,2127.6060336573537,-0.006033657353327726
52,27.01012530000117,2127.5227272727275,2127.539941788499,-0.01721451577168409
53,27.54068340000049,2127.4170454545456,2127.473847730792,-0.05680227624634426
54,28.08229520000168,2127.3868181818184,2127.4077501597662,-0.020931977947839187
55,28.61550140000145,2127.324318181818,2127.341647573129,-0.01732939131125022
56,29.151293400000213,2127.211818181818,2127.2755384030575,-0.06372022123923671
57,29.679095500001495,2127.2311363636363,2127.2094210274745,0.021715336161832965
58,30.210610400001315,2127.1061363636363,2127.1432936248193,-0.03715726118298335
59,30.74460590000126,2127.057727272728,2127.0771543742176,-0.019427101489782217
60,31.266137500000696,2126.959090909091,2127.011001338468,-0.05191042937667589
61,31.783792000000176,2126.924772727273,2126.94483251955,-0.020059792276697408
62,32.3093553000017,2126.874090909091,2126.8786457569295,-0.004554847838335263
63,32.84161050000148,2126.8013636363635,2126.8124388272713,-0.011075190907831711
64,33.35919070000091,2126.767045454546,2126.7462094929806,0.0208359615653535
65,33.87439240000094,2126.6784090909096,2126.679955481791,-0.0015463908812307636
66,34.39096800000152,2126.623181818182,2126.6136745220933,0.009507296088486328
67,34.910553300000174,2126.5834090909093,2126.54736433744,0.03604475346946856
68,35.42265230000157,2126.4659090909095,2126.48102265168,-0.015113560770714685
69,35.94133630000033,2126.412954545455,2126.4146471898057,-0.001692644350896444
70,36.460622200000216,2126.3695454545455,2126.3482356294917,0.021309825053776876
71,36.98406780000005,2126.2788636363634,2126.2817856431157,-0.0029220067522146564
72,37.509802300000956,2126.2647727272724,2126.2152949037286,0.049477823543838895
73,38.03858340000079,2126.1768181818184,2126.1487610752324,0.028057106585947622
74,38.56568010000046,2126.0763636363636,2126.082181823096,-0.005818186732540198
75,39.09321470000032,2126.0775,2126.015554813674,0.06194518632582913
76,39.61780510000062,2125.954772727273,2125.948877695108,0.005895032164971781
77,40.14784430000145,2125.932954545455,2125.8821481174973,0.05080642795746826
78,40.676454000000376,2125.8788636363633,2125.8153637311298,0.06349990523358429
79,41.203326100001505,2125.8477272727273,2125.748522187899,0.09920508482809964
80,41.73262920000161,2125.77,2125.681621141708,0.08837885829188963
81,42.26581660000011,2125.6568181818184,2125.6146582495944,0.04215993222396719
82,42.79615300000114,2125.644090909091,2125.5476311713933,0.09645973769784177
83,43.33250640000006,2125.5804545454544,2125.480537568271,0.09991697718351134
84,43.86823610000101,2125.539090909091,2125.413375104444,0.12571580464691579
85,44.40643640000053,2125.514772727273,2125.3461414472913,0.16863127998158234
86,44.947663800001465,2125.400909090909,2125.2788342681647,0.12207482274425274
87,45.48322189999999,2125.352272727273,2125.211451243751,0.14082148352190416
88,46.01761250000163,2125.322954545454,2125.1439900545975,0.1789644908567425
89,46.54908539999997,2125.259545454546,2125.076448385705,0.18309706884065235
90,47.12625140000091,2125.2122727272726,2125.0088239277347,0.2034487995379095
91,47.67854090000037,2125.116818181818,2124.9411143771376,0.17570380468032454
92,48.222303000000466,2125.1375000000003,2124.873317436799,0.2641825632013024
93,48.765328900000895,2125.035909090909,2124.805430815161,0.2304782757482826
94,49.31144140000106,2124.9745454545455,2124.73745222902,0.23709322552531376
95,49.85986060000141,2124.9288636363635,2124.669379402461,0.25948423390263997
96,50.418049700001575,2124.9120454545455,2124.601210067065,0.31083538748043793
97,50.96758350000164,2124.8625,2124.532941962619,0.32955803738104805
98,51.5291769000014,2124.7575,2124.4645728387395,0.2929271612606499
99,52.07677740000145,2124.7447727272724,2124.3961004554644,0.3486722718080273
100,52.64934690000155,2124.6852272727274,2124.327522582094,0.35770469063345445
101,53.191975400000956,2124.6375,2124.2588369989544,0.3786630010454246
102,53.72943360000136,2124.5420454545456,2124.1900414976835,0.3520039568620632
103,54.269332300000315,2124.5436363636363,2124.1211338818925,0.422502481743777
104,54.81618560000061,2124.486363636364,2124.0521119663244,0.4342516700394299
105,55.36613470000157,2124.4188636363638,2123.9829735790827,0.4358900572810853
106,55.908723000000464,2124.3070454545455,2123.913716562003,0.39332889254228576
107,56.45316520000051,2124.336818181818,2123.8443387707052,0.4924794111129813
108,57.00299500000074,2124.2770454545457,2123.7748380732473,0.5022073812983763
109,57.55528090000007,2124.184090909091,2123.705212353261,0.47887855583030614
110,58.126688000000286,2124.106818181818,2123.635459510259,0.471358671559301
111,58.68480170000112,2124.1118181818188,2123.565577458899,0.5462407229197197
112,59.234992200001216,2124.080681818182,2123.4955641287447,0.5851176894370838
113,59.78528750000078,2123.9970454545455,2123.425417466633,0.5716279879125068
114,60.361626400001114,2124.923181818182,2123.3551354379033,1.5680463802787017
115,60.92678710000108,2123.9893181818184,2123.2847160259707,0.7046021558476241
116,61.481132400000206,2124.909772727273,2123.214157263837,1.6956154634358427
117,62.037340900000345,2123.8215909090914,2123.143457206785,0.6781337023062406
118,62.594518900001276,2123.745454545455,2123.072613963718,0.6728405817366365
119,63.159037400000685,2144.578409090909,2123.0016256649847,21.576783425924532
120,63.712524600001416,2142.0575000000003,2122.93049046221,19.1270095377904
121,64.2684465000002,2136.1722727272727,2122.8592071893368,13.313065537935927
122,64.82993520000127,2135.3681818181817,2122.7877752851577,12.580406533023961
123,65.4147335000016,2135.0220454545456,2122.7161946094607,12.305850845084933
124,65.98888850000004,2134.7411363636365,2122.6444654198613,12.09667094377528
125,66.5482649000005,2134.354090909091,2122.5725883631194,11.781502545971762
126,67.12320270000056,2133.976590909091,2122.500564468525,11.476026440565875
127,67.68430940000144,2134.0670454545457,2122.428395137932,11.63865031661362
128,68.25364350000018,2133.621818181818,2122.3560821360975,11.265736045720587
129,68.81690170000002,2133.468409090909,2122.283627595825,11.18478149508428
130,69.3839723000001,2133.2072727272725,2122.2110340061713,10.996238721101236
131,69.95262309999998,2133.1370454545454,2122.1383042098896,10.998741244655776
132,70.54051570000048,2132.7845454545454,2122.0654413974626,10.719104057082859
133,71.12765340000078,2132.630909090909,2121.9924491071833,10.638459983725625
134,71.70844960000068,2132.3334090909093,2121.9193312163134,10.414077874595932
135,72.29993530000138,2132.222045454546,2121.8460919385307,10.375953516015215
136,72.86802490000082,2132.078863636364,2121.7727358168368,10.306127819527319
137,73.45367530000112,2131.8538636363637,2121.699267722349,10.154595914014863
138,74.02918280000084,2131.7975,2121.625692852093,10.171807147907202
139,74.61428590000104,2131.6354545454546,2121.5520167242116,10.083437821243024
140,75.21267810000064,2131.5495454545458,2121.478245178508,10.071300276037618
141,75.78185680000024,2131.5413636363637,2121.4043843736513,10.13697926271243
142,76.37838230000123,2131.3102272727274,2121.330440786792,9.979786485935165
143,76.94903330000125,2131.0506818181816,2121.2564212156426,9.794260602538998
144,77.5358535000014,2131.0020454545456,2121.1823327735024,9.819712681043256
145,78.12597730000016,2130.9984090909093,2121.108182883393,9.890226207516207
146,78.70342690000145,2130.8224999999998,2121.0339792788614,9.788520721138411
147,79.28341290000026,2130.680681818182,2120.959730006212,9.72095181197028
148,79.87655110000014,2130.7295454545456,2120.8854434212894,9.84410203325615
149,80.47753090000153,2130.4634090909094,2120.811128187342,9.652280903567316
150,81.059749,2130.303181818182,2120.7367932789166,9.566388539265517
151,81.6600053000002,2130.2029545454548,2120.6624479757907,9.540506569664103
152,82.2849188,2130.081590909091,2120.5881018602577,9.493489048833453
153,82.87236620000112,2130.104318181818,2120.513764816308,9.590553365510004
154,83.4632782000008,2130.000681818182,2120.4394470281436,9.56123479003827
155,84.0542458,2129.8611363636364,2120.3651589832457,9.495977380390741
156,84.63538230000086,2129.8365909090912,2120.290911471448,9.54567943764323
157,85.24267080000028,2129.7204545454547,2120.2167155828747,9.503738962579973
158,85.8434373,2129.6886363636363,2120.1425827095104,9.546053654125899
159,86.43685860000004,2129.442727272727,2120.068524543874,9.374202728853106
160,87.0457247000013,2129.415909090909,2119.9945530803575,9.421356010551335
161,87.64046080000116,2129.417727272727,2119.9206806097905,9.497046662936555
162,88.23371570000018,2129.338863636364,2119.846919720933,9.491943915430966
163,88.8377487000016,2129.3952272727274,2119.7732833028663,9.62194396986115
164,89.45143200000166,2129.301590909091,2119.699784544833,9.601806364257754
165,90.04940630000056,2128.9750000000004,2119.6264369403493,9.348563059651042
166,90.64528380000048,2128.944090909091,2119.5532542865653,9.390836622525512
167,91.24426960000164,2128.8770454545456,2119.4802506762594,9.396794778286221
168,91.84953140000108,2128.8747727272726,2119.4074404991748,9.467332228097803
169,92.46369080000112,2128.695909090909,2119.334838442207,9.361070648702025
170,93.06627290000142,2128.759090909091,2119.2624594916347,9.496631417456229
171,93.67031510000017,2115.6852272727274,2119.1903189297595,-3.5050916570321533
172,94.2843709000008,2117.4852272727276,2119.118432339194,-1.6332050664664166
173,94.8909059000016,2118.1620454545455,2119.046804329317,-0.8847588747717055
174,95.49793480000152,2118.5711363636365,2118.975434396508,-0.40429803287133836
175,96.10547660000157,2118.7888636363637,2118.9043192672702,-0.11545563090658106
176,96.73174910000124,2118.996363636364,2118.833454402391,0.16290923397309598
177,97.34632110000166,2119.0518181818184,2118.762834901206,0.28898328061222855
178,97.9503697,2119.1731818181815,2118.692455868203,0.48072594997847773
179,98.56600590000016,2119.1895454545456,2118.622312417008,0.5672330375377896
180,99.17311860000154,2119.1752272727276,2118.552399676449,0.6228275962785119
181,99.78632890000154,2119.2375,2118.4827127932926,0.7547872067075332
182,100.40308590000132,2119.287272727273,2118.413246934001,0.8740257932718123
183,101.02265250000164,2119.281590909091,2118.343997288905,0.9375936201859076
184,101.64896380000027,2119.364318181818,2118.274959075974,1.0893591058438687
185,102.28202810000039,2119.3225,2118.206127542827,1.1163724571733837
186,102.89799040000071,2119.3352272727275,2118.1374979715297,1.1977293011977963
187,103.51533280000149,2119.3279545454548,2118.0690656794523,1.2588888660025077
188,104.13715000000047,2119.2702272727274,2118.000826021839,1.2694012508882224
189,104.75733820000096,2119.2911363636367,2117.932774393745,1.3583619698915754
190,105.38619760000074,2119.3075,2117.8649062303657,1.4425937696341862
191,106.0113403000014,2119.2777272727276,2117.797217009853,1.480510262874759
192,106.64108180000039,2119.235227272727,2117.7297022559765,1.5055250167506529
193,107.27014280000003,2119.228181818182,2117.6623575393246,1.5658242788572352
194,107.90517670000008,2119.2125,2117.595178478093,1.617321521906888
195,108.54259610000008,2119.228181818182,2117.528160739995,1.7000210781866372
196,109.22606090000045,2119.2147727272727,2117.4613000438867,1.7534726833860077
197,109.88482490000024,2119.112727272727,2117.3945921623836,1.71813511034361
198,110.5330592000009,2119.101136363636,2117.3280329235517,1.7731034400844692
199,111.19249210000089,2119.138409090909,2117.26161820979,1.8767908811191774
200,111.85099840000112,2119.0702272727276,2117.1953439595663,1.8748833131612628
201,112.52243180000005,2119.0613636363637,2117.1292061706986,1.9321574656651137
202,113.16874110000026,2119.027954545455,2117.0632009002934,1.964753645161636
203,113.82444910000049,2119.016590909091,2116.997324266557,2.0192666425341486
204,114.47386140000162,2119.0195454545456,2116.9315724498265,2.0879730047190606
205,115.12438070000098,2118.9809090909093,2116.865941694294,2.1149673966151568
206,115.79672879999998,2118.9138636363637,2116.800428310178,2.1134353261854812
207,116.46457250000094,2118.9002272727275,2116.735028674578,2.1651985981493453
208,117.11123470000166,2118.9175,2116.669739231427,2.2477607685732437
209,117.76907420000134,2118.8906818181817,2116.604556493126,2.286125325055764
210,118.43787140000131,2118.875681818182,2116.5394770431576,2.336204775024271
211,119.1071279000007,2118.8334090909093,2116.4744975372973,2.3589115536119607
212,119.76070250000157,2118.8186363636364,2116.4096147051973,2.4090216584390873
213,120.40530990000116,2118.802727272727,2116.3448253511056,2.4579019216216693
214,121.04748500000096,2119.6995454545454,2116.2801263554506,3.419419099094739
215,121.69379200000003,2119.414318181818,2116.2155146763857,3.198803505432352
216,122.33802110000033,2118.7938636363638,2116.150987380196,2.6428762561677104
217,122.98132860000078,2118.6263636363637,2116.0865416343213,2.539822002042456
218,123.64011680000112,2149.769772727273,2116.0221746897755,33.74759803749748
219,124.29103050000049,2143.189772727273,2115.9578838778893,27.231888849383722
220,124.96074490000137,2139.617272727273,2115.8936675971854,23.723605130087435
221,125.62750330000017,2138.2729545454545,2115.8295251073346,22.443429438119892
222,126.3078854000014,2137.391590909091,2115.765456418213,21.62613449087803
223,126.95881140000165,2136.8081818181818,2115.701462249421,21.10671956876058
224,127.61579080000047,2136.554772727273,2115.637544004437,20.917228722835716
225,128.2758939000014,2135.994545454546,2115.5737037541926,20.42084170035332
226,128.93136330000016,2135.6815909090915,2115.509944231081,20.171646678010347
227,129.59068819999993,2135.2786363636365,2115.446268813259,19.832367550377512
228,130.25423950000004,2135.0486363636364,2115.382681516766,19.66595484687059
229,130.91384300000027,2134.975454545455,2115.319186984796,19.656267560658762
230,131.57440240000142,2134.530681818182,2115.2557904824357,19.27489133574636
231,132.23533580000003,2134.3309090909092,2115.1924978963552,19.13841119455401
232,132.90126280000004,2134.188181818182,2115.129315722751,19.058866095430858
233,133.57657500000096,2134.186818181818,2115.066251063029,19.12056711878904
234,134.2531826000013,2133.7520454545456,2115.003311621289,18.748733833256665
235,134.94718880000073,2133.876818181818,2114.940505706277,18.9363124755414
236,135.6130114000007,2133.569090909091,2114.8778422196247,18.691248689466192
237,136.2789414000017,2133.558181818182,2114.8153306617846,18.74285115639759
238,136.94260480000048,2133.380909090909,2114.7529811242766,18.627927966632342
239,137.60675980000087,2133.275227272727,2114.690804291322,18.58442298140517
240,138.27730470000097,2133.0400000000004,2114.6288114362083,18.411188563792166
241,138.9460392000001,2132.8172727272727,2114.5670144199144,18.25025830735831
242,139.61666760000116,2132.554090909091,2114.5054256856315,18.048665223459466
243,140.31182900000022,2132.6906818181815,2114.444058253674,18.246623564507445
244,141.00528000000122,2132.441363636364,2114.3829257151056,18.058437921258246
245,141.67455930000142,2132.365227272727,2114.3220422379995,18.043185034727685
246,142.34362320000037,2132.2952272727275,2114.2614225614857,18.033804711241828
247,143.0352913000006,2132.0552272727273,2114.20108199527,17.854145277457064
248,143.7107833000009,2132.0861363636363,2114.141036419338,17.945099944298363
249,144.38026160000118,2131.989545454546,2114.0813022782713,17.908243176274482
250,145.05957130000024,2131.8786363636364,2114.0218965841273,17.8567397795091
251,145.75243460000092,2131.5350000000003,2113.9628369152706,17.57216308472971
252,146.43513970000097,2131.732272727273,2113.9041414147464,17.828131312526693
253,147.10780550000163,2131.506590909091,2113.845828781279,17.660762127811722
254,147.7812556000008,2131.405227272727,2113.787918277368,17.617308995359053
255,148.45438510000167,2131.5320454545454,2113.7304297239934,17.80161573055193
