,Time (s),J (nA/cm2),bkg,J-bkg
0,0.2314943000001186,542.9579545454545,542.9262074300823,0.03174711537224084
1,0.7464984000002914,542.9261363636364,542.9035455156873,0.022590847949118142
2,1.2506814000003033,542.9331818181819,542.8808836022961,0.05229821588579853
3,1.7558395000000928,542.9161363636364,542.8582216916271,0.057914672009246715
4,2.2575653000003513,542.8961363636364,542.8355597870523,0.06057657658413973
5,2.7681124000000636,542.876590909091,542.8128978937746,0.06369301531640303
6,3.2817502000002605,542.8272727272727,542.790236018913,0.03703670835966477
7,3.787303900000097,542.8218181818182,542.7675741716005,0.05424401021775793
8,4.28793480000013,542.7875,542.744912362141,0.04258763785901465
9,4.792998500000067,542.7531818181818,542.722250602554,0.030931215627788333
10,5.29901400000017,542.736590909091,542.6995889062057,0.037002002885287766
11,5.802379600000222,542.7184090909092,542.6769272874403,0.041481803468855105
12,6.304500000000189,542.6881818181819,542.6542657617726,0.03391605640922535
13,6.805838600000243,542.6509090909091,542.6316043460289,0.01930474488017353
14,7.30671540000003,542.6127272727274,542.6089430581078,0.0037842146195998794
15,7.810765000000174,542.5927272727273,542.5862819165185,0.006445356208814701
16,8.32210460000033,542.5743181818183,542.5636209398897,0.010697241928596668
17,8.822441000000254,542.5459090909092,542.5409601470542,0.004948943854969912
18,9.336389500000223,542.5234090909091,542.518299557183,0.0051095337261131135
19,9.839183300000059,542.5025,542.4956391896038,0.006860810396233319
20,10.342730100000153,542.4697727272728,542.472979063806,-0.00320633653313962
21,10.843843200000265,542.4431818181818,542.4503191994958,-0.007137381314009872
22,11.348019100000329,542.4422727272728,542.4276596063419,0.014613120930903278
23,11.864513100000295,542.4220454545456,542.4050002716683,0.017045182877268417
24,12.372828400000344,542.3622727272727,542.3823411832611,-0.020068455988393907
25,12.874023300000317,542.3427272727273,542.3596823294456,-0.01695505671830233
26,13.379845500000101,542.3475,542.3370236357197,0.010476364280293637
27,13.88070319999997,542.3127272727272,542.3143649745008,-0.0016377017735749178
28,14.38460350000014,542.2718181818182,542.2917062185379,-0.019888036719748925
29,14.89005270000007,542.2565909090908,542.2690472354532,-0.012456326362325854
30,15.396205000000009,542.2484090909091,542.2463878306058,0.002021260303308736
31,15.899230200000147,542.2079545454546,542.2237277703588,-0.01577322490413735
32,16.40329490000022,542.1927272727273,542.201066821139,-0.008339548411640862
33,16.910504800000126,542.1727272727272,542.1784046999926,-0.005677427265368351
34,17.413485400000354,542.1520454545455,542.1557410978577,-0.0036956433121986265
35,17.9156696,542.113409090909,542.1330756878983,-0.01966659698928197
36,18.421443300000192,542.1081818181818,542.1104081317086,-0.002226313526762169
37,18.92757130000018,542.079090909091,542.0877380293134,-0.008647120222462945
38,19.434034200000042,542.0597727272728,542.0650649737681,-0.005292246495287145
39,19.945561700000326,542.0288636363638,542.0423885310568,-0.013524894692977796
40,20.445774600000277,542.0122727272727,542.0197082505953,-0.007435523322556037
41,20.94868570000017,541.9836363636364,541.9970236394579,-0.013387275821514777
42,21.460889599999973,541.9581818181819,541.9743341814409,-0.016152363259038793
43,21.9671043000003,541.9170454545455,541.9516393184293,-0.0345938638838561
44,22.485677099999975,541.8929545454546,541.9289384417411,-0.03598389628655241
45,22.99317820000033,541.9038636363637,541.9062308343923,-0.0023671980286508187
46,23.493744200000037,541.8743181818182,541.8835156667459,-0.009197484927653932
47,23.998478400000295,541.8563636363637,541.860792101754,-0.004428465390333258
48,24.50059850000025,541.8340909090908,541.8380592735747,-0.003968364483853293
49,25.0079695000004,541.8038636363636,541.8153163025019,-0.011452666138211498
50,25.512653500000397,541.7859090909092,541.7925622964061,-0.006653205496945702
51,26.022212500000023,541.7954545454546,541.7697963273038,0.025658218150852008
52,26.527641699999997,541.7397727272728,541.7470174463822,-0.007244719109394282
53,27.03455460000032,541.7322727272727,541.7242247056399,0.008048021632816926
54,27.54536710000002,541.6936363636364,541.7014171343952,-0.00778077075881356
55,28.06304590000036,541.6643181818182,541.6785937622209,-0.014275580402681953
56,28.57774960000006,541.6525,541.655753594331,-0.0032535943309994764
57,29.100480900000093,541.6375,541.6328955912478,0.0046044087522432164
58,29.61362340000005,541.5918181818182,541.6100187033073,-0.018200521489120547
59,30.142107200000282,541.5779545454546,541.5871218809916,-0.009167335536972132
60,30.66060430000016,541.5556818181818,541.5642040178025,-0.008522199620642823
61,31.177042900000288,541.515,541.5412639785424,-0.02626397854237439
62,31.695734300000368,541.5179545454546,541.5183006013333,-0.0003460558787082846
63,32.21364350000022,541.4906818181819,541.4953126420737,-0.004630823891830005
64,32.73780130000023,541.4602272727273,541.472298855579,-0.012071582851717721
65,33.25735329999998,541.4411363636364,541.4492579821666,-0.008121618530253727
66,33.77824760000021,541.4229545454546,541.426188724363,-0.0032341789084284756
67,34.29868830000032,541.4122727272728,541.4030897592678,0.009182968005006842
68,34.8295207000001,541.3854545454545,541.3799597538562,0.005494791598380289
69,35.353130599999986,541.3563636363637,541.3567973753931,-0.0004337390294040233
70,35.87749320000012,541.3256818181818,541.3336012913177,-0.007919473135871158
71,36.40539200000012,541.3013636363637,541.3103701677112,-0.009006531347495184
72,36.946328600000015,541.2922727272727,541.2871026458615,0.005170081411165484
73,37.4806851000003,541.2702272727273,541.2637973388601,0.006429933867252657
74,38.015960200000336,541.264090909091,541.2404528599619,0.023638049129090177
75,38.5548160000003,541.2147727272728,541.217067822625,-0.0022950953522240525
76,39.08239430000003,541.2172727272728,541.193640841055,0.023631886217799547
77,39.62318970000024,541.1765909090909,541.1701705222717,0.006420386819172563
78,40.15758780000033,541.1515909090909,541.1466554740431,0.004935435047855208
79,40.6874014,541.1177272727273,541.1230943043402,-0.0053670316128773266
80,41.21577860000025,541.1302272727273,541.0994856212899,0.030741651437438122
81,41.76209340000014,541.1025000000001,541.0758280162172,0.02667198378287594
82,42.29757440000003,541.0870454545454,541.0521200814192,0.03492537312627064
83,42.83669760000021,541.0400000000001,541.0283604100358,0.011639589964261177
84,43.37501229999998,541.0313636363636,541.0045475963117,0.026816040051926393
85,43.910845000000336,541.0179545454546,540.980680234859,0.0372743105955351
86,44.45885300000009,540.985,540.9567569211381,0.028243078861919457
87,44.99811230000023,540.9640909090908,540.932776251788,0.0313146573028007
88,45.537161200000355,540.9334090909091,540.9087368243408,0.024672266568245504
89,46.07918150000023,540.9275000000001,540.884637237319,0.04286276268112488
90,46.62824330000012,540.9022727272727,540.8604760900249,0.04179663724778493
91,47.17476450000004,540.8770454545454,540.8362519831167,0.04079347142874212
92,47.729255100000046,540.8472727272728,540.8119635185741,0.0353092086986635
93,48.28077610000037,540.8120454545455,540.7876092996668,0.024436154878685556
94,48.83518619999995,540.8445454545455,540.763187930781,0.08135752376449545
95,49.391671000000315,540.775,540.7386980170756,0.03630198292432851
96,49.9554948,540.7713636363636,540.7141381662824,0.05722547008122092
97,50.519475200000215,540.7381818181818,540.6895069872808,0.048674830901063615
98,51.069549800000004,540.7084090909091,540.6648030907601,0.04360600014899774
99,51.62143170000036,540.7,540.6400250889486,0.059974911051426716
100,52.17444850000038,540.6711363636364,540.6151715954542,0.05596476818220708
101,52.718804699999964,540.6427272727273,540.5902412257806,0.05248604694668302
102,53.27938660000018,540.6050000000001,540.5652325972018,0.03976740279836122
103,53.82064410000021,540.6011363636363,540.5401443286514,0.06099203498490624
104,54.36279830000012,540.5686363636364,540.5149750403207,0.05366132331573681
105,54.91239500000029,540.5515909090909,540.4897233543296,0.061867554761306565
106,55.46452690000024,540.535,540.4643878944951,0.0706121055048925
107,56.01945969999997,540.5136363636364,540.4389672865904,0.07466907704599635
108,56.57014079999999,540.4922727272728,540.4134601586218,0.07881256865107389
109,57.12601059999997,540.475,540.3878651409567,0.08713485904331719
110,57.68954410000015,540.4661363636363,540.362180866455,0.10395549718134589
111,58.260357600000134,540.4150000000001,540.3364059707316,0.07859402926851544
112,58.813524600000164,540.3986363636365,540.3105390926889,0.08809727094751452
113,59.36613770000031,540.3854545454545,540.2845788737146,0.10087567173991374
114,59.956777800000054,540.3438636363637,540.2585239579818,0.08533967838195622
115,60.51368160000038,540.7506818181819,540.2323729928536,0.5183088253282904
116,61.076380200000116,540.3084090909091,540.2061246283916,0.10228446251744572
117,61.620727,540.7025,540.179777531048,0.5227224689519971
118,62.1657124000003,540.2854545454546,540.1533303705091,0.13212417494548845
119,62.71343210000032,540.2525,540.1267818329916,0.12571816700847194
120,63.258354900000086,550.7693181818182,540.1001306088897,10.669187572928536
121,63.79775850000031,548.0472727272727,540.0733753925734,7.973897334699245
122,64.34464060000028,545.4056818181818,540.0465152158021,5.359166602379787
123,64.88681480000014,544.9920454545455,540.0195493624917,4.972496092053802
124,65.45766140000023,544.8206818181818,539.9924772860303,4.828204532151517
125,66.01316990000032,544.7731818181818,539.9652985970498,4.807883221131988
126,66.56715350000012,544.6297727272727,539.9380130588634,4.691759668409304
127,67.12100770000006,544.5147727272728,539.9106205868227,4.604152140450083
128,67.6835801000002,544.3950000000001,539.8831212446461,4.511878755354019
129,68.23647750000008,544.3070454545455,539.8555152416476,4.451530212897865
130,68.79690010000012,544.2463636363638,539.8278029298194,4.418560706544326
131,69.35779550000008,544.1052272727272,539.7999848019234,4.305242470803819
132,69.91065270000036,544.1284090909091,539.7720614904488,4.356347600460367
133,70.48353640000003,544.0006818181819,539.7440337640282,4.256648054153629
134,71.04063790000008,543.9913636363636,539.7159025290545,4.275461107309184
135,71.62456470000006,543.9850000000001,539.6876688265271,4.297331173473026
136,72.18504410000014,543.836590909091,539.6593338326477,4.177257076443311
137,72.74604850000014,543.7225,539.6308988595116,4.091601140488365
138,73.30901390000008,543.6872727272728,539.6023653513106,4.084907375962189
139,73.8919704,543.689090909091,539.5737348816243,4.115356027466646
140,74.45907450000004,543.6077272727273,539.5450091532084,4.062718119518877
141,75.024993,543.5831818181819,539.5161899989573,4.0669918192245404
142,75.59038660000031,543.5247727272728,539.48727938024,4.0374933470327505
143,76.16214500000024,543.4638636363637,539.458279387035,4.005584249328763
144,76.72955960000036,543.3763636363636,539.4291922369973,3.9471713993663116
145,77.3186429000002,543.3352272727273,539.4000202744502,3.935206998277067
146,77.88561170000004,543.3213636363637,539.3707659685368,3.9505976678268553
147,78.4563132000003,543.3615909090909,539.3414319128426,4.020158996248256
148,79.03488880000032,543.2734090909091,539.3120208258817,3.961388265027381
149,79.6078375000002,543.2872727272727,539.2825355532968,4.004737173975855
150,80.19418940000014,543.1679545454546,539.2529790660009,3.9149754794536875
151,80.82724780000036,543.1109090909091,539.2233544615478,3.8875546293612615
152,81.3967748,543.0879545454545,539.1936649612943,3.8942895841602194
153,81.97692030000007,543.0397727272727,539.1639139095321,3.8758588177406637
154,82.57066840000016,543.1697727272727,539.1341047737012,4.035667953571533
155,83.1521928000002,543.0127272727273,539.104241143807,3.908486128920231
156,83.72855449999996,542.9043181818183,539.0743267374737,3.829991444344614
157,84.34110099999998,542.87,539.0443653959227,3.8256346040773224
158,84.92416670000011,542.861590909091,539.0143610814904,3.847229827600586
159,85.50840830000016,542.8136363636363,538.9843178774903,3.8293184861460077
160,86.10397300000022,542.8827272727273,538.954239988896,3.9284872838312594
161,86.6887697000002,542.7681818181818,538.9241317417747,3.844050076407143
162,87.27251660000002,542.7575,538.8939975864231,3.8635024135769527
163,87.85344269999996,542.6195454545455,538.8638420946978,3.7557033598476437
164,88.44028460000028,542.6302272727273,538.83366996063,3.7965573120973204
165,89.0578214000002,542.6090909090909,538.8034859970165,3.8056049120743864
166,89.6490044000002,542.6025000000001,538.773295136712,3.829204863288055
167,90.24375820000024,542.45,538.7431024329147,3.7068975670853206
168,90.83236030000036,542.4811363636364,538.7129130599133,3.7682233037231754
169,91.43364190000013,542.4304545454545,538.6827323092186,3.747722236235859
170,92.02466930000035,542.4584090909091,538.6525655915035,3.8058434994055688
171,92.61443950000012,542.451590909091,538.6224184359538,3.8291724731371914
172,93.2233142,542.424090909091,538.5922964921069,3.831794416984053
173,93.82265720000032,537.4170454545456,538.5622055305892,-1.1451600760435667
174,94.43518070000027,537.9975000000001,538.5321514431988,-0.5346514431987544
175,95.03496640000004,538.1672727272727,538.5021365366332,-0.3348638093605132
176,95.63694299999996,538.2288636363636,538.4721614437808,-0.24329780741720697
177,96.25322210000012,538.2931818181819,538.4422257491868,-0.14904393100493962
178,96.85348620000012,538.3347727272727,538.4123282757154,-0.07755554844266044
179,97.45492809999996,538.3429545454545,538.3824673796252,-0.03951283417063678
180,98.0638240000003,538.3738636363637,538.3526411743753,0.021222461988372743
181,98.6663953000002,538.3738636363637,538.3228476497238,0.05101598663986806
182,99.26861820000022,538.3731818181818,538.2930847961001,0.08009702208175895
183,99.87524389999999,538.3804545454547,538.2633506055465,0.11710393990813373
184,100.49249570000029,538.3800000000001,538.2336430726386,0.14635692736146666
185,101.10139230000004,538.3495454545456,538.2039601956551,0.1455852588904918
186,101.71337089999997,538.3290909090908,538.1742999775024,0.1547909315884226
187,102.32853090000026,538.3297727272727,538.144660425691,0.1851123015817393
188,102.94968400000016,538.3265909090909,538.1150395526258,0.2115513564650655
189,103.56047560000025,538.4131818181818,538.0854353765659,0.3277464416158864
190,104.17691890000015,538.3536363636364,538.0558459224603,0.2977904411760619
191,104.80304890000025,538.2915909090909,538.0262692256223,0.2653216834686418
192,105.41540740000028,538.2911363636364,537.9967033307819,0.2944330328544993
193,106.0316184000003,538.2750000000001,537.9671462910595,0.30785370894056996
194,106.64945620000026,538.2504545454547,537.9375961688862,0.3128583765684425
195,107.27965510000013,538.249090909091,537.908051036428,0.34103987266303193
196,107.89849300000014,538.2306818181819,537.8785089757445,0.35217284243742597
197,108.53826610000033,538.2195454545455,537.8489680796798,0.3705773748656611
198,109.18413069999997,538.2052272727273,537.8194264522151,0.38580082051214504
199,109.83731990000024,538.1513636363636,537.78988220905,0.3614814273136062
200,110.45793260000028,538.2220454545454,537.7603334780842,0.46171197646117434
201,111.0836019000003,538.1970454545454,537.7307783986486,0.46626705589687845
202,111.70323110000027,538.135,537.7012151246744,0.43378487532561394
203,112.33543899999995,538.1072727272727,537.6716418248376,0.43563090243515035
204,112.96272290000024,538.0847727272728,537.6420566815317,0.4427160457411219
205,113.58428800000002,538.04,537.6124578909258,0.4275421090741247
206,114.20951560000003,538.0338636363637,537.582843663189,0.4510199731746525
207,114.83493790000011,538.0720454545456,537.5532122220104,0.5188332325351439
208,115.4616003000001,537.9631818181819,537.5235618053416,0.439620012840237
209,116.08965900000021,537.9786363636364,537.4938906675411,0.48474569609527407
210,116.71853540000029,537.9727272727273,537.4641970768694,0.5085301958579294
211,117.36576720000039,537.976590909091,537.4344793169158,0.5421115921751607
212,118.0142794000003,537.9431818181819,537.404735687351,0.5384461308308346
213,118.65982140000006,537.9938636363636,537.3749645049886,0.6188991313749739
214,119.29565600000024,537.8979545454546,537.3451641036692,0.5527904417854188
215,119.93129270000009,537.8618181818182,537.3153328368046,0.5464853450135934
216,120.57920560000002,537.935909090909,537.2854690752879,0.6504400156211432
217,121.21797839999999,538.2138636363636,537.2555712072933,0.9582924290702977
218,121.85738140000012,537.8384090909092,537.2256376415639,0.6127714493452459
219,122.51391790000025,537.8622727272727,537.1956668171464,0.66660591012635
220,123.15930419999995,537.8079545454547,537.1656571924651,0.6422973529895444
221,123.79404450000038,538.5270454545455,537.1356072470244,1.3914382075211051
222,124.43817870000021,548.7640909090909,537.1055154806401,11.658575428450831
223,125.08486820000007,546.4056818181818,537.0753804371288,9.330301381053005
224,125.72999600000003,545.8761363636364,537.045201028984,8.830935334652395
225,126.40714560000015,545.5988636363637,537.0149764637492,8.583887172614482
226,127.05866360000027,545.2545454545455,536.9847062282265,8.269839226318936
227,127.71082340000021,545.179090909091,536.9543900806643,8.224700828426649
228,128.36060339999997,544.8988636363637,536.9240280408266,7.974835595537115
229,129.00401630000033,544.7106818181818,536.8936203885647,7.81706142961707
230,129.6583896000002,544.6963636363637,536.8631676559173,7.833195980446362
231,130.31870479999998,544.4959090909091,536.8326706221198,7.663238468789245
232,130.97044870000036,544.4695454545455,536.8021303141152,7.6674151404303075
233,131.62483280000015,544.3186363636364,536.7715480011789,7.5470883624575436
234,132.2812884,544.2643181818182,536.7409251950515,7.52339298676668
235,132.93411890000016,544.1327272727273,536.7102636461335,7.422463626593753
236,133.60663460000023,543.9922727272727,536.6795653427354,7.312707384537362
237,134.2657038000002,544.0170454545455,536.6488325078864,7.368212946659128
238,134.9259916000001,544.0054545454545,536.6180675958637,7.387386949590791
239,135.57348580000007,543.8406818181818,536.5872732939483,7.253408524233464
240,136.2255927000001,543.8095454545455,536.5564525230304,7.253092931515084
241,136.89239650000036,543.7334090909092,536.5256084333735,7.207800657535699
242,137.5503418000003,543.7327272727274,536.4947444046037,7.237982868123709
243,138.2125435000003,543.5563636363637,536.463864044278,7.092499592085687
244,138.87344800000028,543.5359090909091,536.4329711888383,7.102937902070721
245,139.5334437000001,543.5268181818182,536.4020698990113,7.124748282806877
246,140.1890760000001,543.4613636363637,536.371164460138,7.090199176225724
247,140.8564512000003,543.3781818181818,536.3402593828636,7.037922435318251
248,141.5164974000004,543.3002272727273,536.3093594020453,6.9908678706819956
249,142.18137130000014,543.2795454545454,536.2784694750989,7.0010759794465685
250,142.84659600000032,543.2786363636363,536.2475947805106,7.031041583125784
251,143.50882100000035,543.2054545454545,536.21674071816,6.9887138272944185
252,144.17647970000007,543.0861363636363,536.1859129102683,6.900223453368085
253,144.85769900000014,543.1777272727273,536.1551172000582,7.022610072669181
254,145.52216369999996,543.0513636363637,536.1243596489572,6.927003987406465
255,146.1886195000002,542.9777272727273,536.0936465404669,6.884080732260372
256,146.85798599999998,542.9231818181819,536.0629843771399,6.8601974410420326
257,147.52599920000011,542.9115909090909,536.0323798792224,6.879211029868543
258,148.20034540000006,542.8247727272727,536.0018399838993,6.8229327433733715
259,148.8735941,542.7561363636364,535.9713718458953,6.78476451774111
260,149.54464740000003,542.7077272727273,535.940982835695,6.766744437032344
